Total Time (s),Cycle Elapsed Time (s),Total Cycles,Elapsed Cycles,Step,Total Cycle Count(Linear Waveform),Total Cycle Count(Rotary Waveform),Position (mm),Force (kN),Stress (MPa),Digital Position (mm),Rotation (deg),Torque (N·m),Digital Rotation (deg)
0,0,1,1,1,0,0,0.174042576,-0.018536563,-18.53656269,0.174046356,-33.13287767,0.021144997,-33.13287523
0.002,0.002,1,1,1,0,0,0.174028825,-0.018488304,-18.48830441,0.174032605,-33.13299421,0.022559541,-33.13299177
0.004,0.004,1,1,1,0,0,0.174030192,-0.018455584,-18.45558405,0.174033972,-33.13302951,0.024079447,-33.13302707
0.005,0.005,1,1,1,0,0,0.174036315,-0.018354548,-18.35454755,0.174040095,-33.13305621,0.022214775,-33.13305376
0.007,0.007,1,1,1,0,0,0.174038776,-0.018288747,-18.28874718,0.174042556,-33.13297551,0.025019533,-33.13297306
0.009,0.009,1,1,1,0,0,0.174033416,-0.018535846,-18.53584565,0.174037196,-33.13296723,0.020964315,-33.13296479
0.011,0.011,1,1,1,0,0,0.17402214,-0.018362026,-18.36202595,0.17402592,-33.13290627,0.023206708,-33.13290382
0.012,0.012,1,1,1,0,0,0.174019787,-0.018363424,-18.36342394,0.174023567,-33.13280416,0.019997288,-33.13280171
0.014,0.014,1,1,1,0,0,0.174029806,-0.018470239,-18.47023902,0.174033586,-33.13254146,0.021436365,-33.13253901
0.016,0.016,1,1,1,0,0,0.174035066,-0.018409591,-18.4095911,0.174038846,-33.13228824,0.024899264,-33.1322858
0.018,0.018,1,1,1,0,0,0.174041727,-0.018474464,-18.47446417,0.174045507,-33.13207815,0.020522348,-33.13207571
0.02,0.02,1,1,1,0,0,0.174040616,-0.018479675,-18.47967527,0.174044396,-33.13178255,0.021714598,-33.1317801
0.022,0.022,1,1,1,0,0,0.17404667,-0.018440144,-18.44014379,0.17405045,-33.1314708,0.022753299,-33.13146835
0.024,0.024,1,1,1,0,0,0.174106879,-0.018581679,-18.58167864,0.174110659,-33.13135591,0.018176998,-33.13135347
0.026,0.026,1,1,1,0,0,0.174217741,-0.018457991,-18.45799122,0.174221521,-33.13127447,0.022782684,-33.13127202
0.028,0.028,1,1,1,0,0,0.174656687,-0.01824528,-18.24528016,0.174660467,-33.13121933,0.022413802,-33.13121688
0.03,0.03,1,1,1,0,0,0.176340526,-0.017782775,-17.78277546,0.176344306,-33.1312349,0.020311204,-33.13123245
0.032,0.032,1,1,1,0,0,0.18004255,-0.017672426,-17.67242622,0.18004633,-33.13123877,0.021824191,-33.13123633
0.034,0.034,1,1,1,0,0,0.186006475,-0.017334018,-17.33401847,0.186010255,-33.13128667,0.022164175,-33.13128422
0.036,0.036,1,1,1,0,0,0.19483931,-0.017018256,-17.01825584,0.19484309,-33.1313936,0.020645752,-33.13139116
0.038,0.038,1,1,1,0,0,0.206994289,-0.016908102,-16.90810235,0.206998069,-33.13148577,0.02234659,-33.13148333
0.04,0.04,1,1,1,0,0,0.223103944,-0.016512328,-16.512328,0.223107724,-33.13160415,0.021897407,-33.13160171
0.042,0.042,1,1,1,0,0,0.244021113,-0.016223071,-16.22307138,0.244024893,-33.13172839,0.020975639,-33.13172594
0.044,0.044,1,1,1,0,0,0.270337248,-0.015859702,-15.85970187,0.270341028,-33.13179838,0.021599961,-33.13179594
0.046,0.046,1,1,1,0,0,0.302850264,-0.015580538,-15.58053763,0.302854044,-33.13178328,0.022963064,-33.13178084
0.048,0.048,1,1,1,0,0,0.342190523,-0.015203745,-15.2037448,0.342194303,-33.13173464,0.021401775,-33.13173219
0.05,0.05,1,1,1,0,0,0.389551883,-0.014585394,-14.58539419,0.389555663,-33.13154243,0.023353248,-33.13153998
0.052,0.052,1,1,1,0.25,0,0.446077989,-0.014375588,-14.3755883,0.446081769,-33.13119153,0.02305093,-33.13118909
0.054,0.054,1,1,1,0.25,0,0.512141116,-0.014077946,-14.07794566,0.512144896,-33.13087234,0.02012365,-33.13086989
0.056,0.056,1,1,1,0.25,0,0.588668862,-0.013582949,-13.5829492,0.588672642,-33.13063427,0.020606224,-33.13063182
0.058,0.058,1,1,1,0.25,0,0.676804888,-0.01330023,-13.3002302,0.676808668,-33.13051717,0.022148688,-33.13051473
0.06,0.06,1,1,1,0.25,0,0.777543871,-0.012862274,-12.86227418,0.777547651,-33.13057628,0.021870598,-33.13057384
0.062,0.062,1,1,1,0.25,0,0.891712257,-0.012501362,-12.50136212,0.891716037,-33.1306196,0.022896099,-33.13061716
0.064,0.064,1,1,1,0.25,0,1.019842822,-0.012288246,-12.28824602,1.019846602,-33.13062857,0.022903284,-33.13062613
0.066,0.066,1,1,1,0.25,0,1.162037722,-0.012270544,-12.27054368,1.162041502,-33.13060183,0.019708301,-33.13059938
0.068,0.068,1,1,1,0.25,0,1.318633798,-0.011990706,-11.99070618,1.318637578,-33.13053307,0.020163229,-33.13053063
0.07,0.07,1,1,1,0.25,0,1.49014519,-0.012101245,-12.10124534,1.49014897,-33.13046571,0.024985817,-33.13046327
0.072,0.072,1,1,1,0.25,0,1.676562402,-0.011865858,-11.86585827,1.676566182,-33.13047232,0.021342452,-33.13046987
0.074,0.074,1,1,1,0.25,0,1.878357568,-0.011701467,-11.70146662,1.878361348,-33.13049885,0.020967094,-33.1304964
0.076,0.076,1,1,1,0.25,0,2.096045794,-0.011514052,-11.51405156,2.096049574,-33.13041318,0.021459976,-33.13041073
0.078,0.078,1,1,1,0.25,0,2.329694387,-0.011615618,-11.61561843,2.329698167,-33.13025098,0.022361924,-33.13024854
0.08,0.08,1,1,1,0.25,0,2.579061806,-0.011886618,-11.88661814,2.579065586,-33.13007984,0.022385773,-33.13007739
0.082,0.082,1,1,1,0.25,0,2.843361139,-0.012243276,-12.24327624,2.843364919,-33.12972483,0.023760768,-33.12972239
0.084,0.084,1,1,1,0.25,0,3.121522171,-0.012487767,-12.48776662,3.121525951,-33.12919381,0.021104722,-33.12919136
0.086,0.086,1,1,1,0.25,0,3.412931875,-0.012896919,-12.89691921,3.412935655,-33.12864985,0.018870806,-33.12864741
0.088,0.088,1,1,1,0.25,0,3.716960892,-0.012984209,-12.98420912,3.716964672,-33.12833988,0.022938364,-33.12833743
0.09,0.09,1,1,1,0.25,0,4.0325988,-0.014017315,-14.01731511,4.03260258,-33.12790996,0.021752365,-33.12790751
0.092,0.092,1,1,1,0.25,0,4.356872152,-0.015296044,-15.2960441,4.356875932,-33.1272567,0.021861876,-33.12725426
0.094,0.094,1,1,1,0.25,0,4.687138087,-0.015816989,-15.81698878,4.687141867,-33.12667865,0.024765501,-33.12667621
0.096,0.096,1,1,1,0.25,0,5.021922014,-0.016574555,-16.57455474,5.021925794,-33.12607889,0.02151996,-33.12607645
0.098,0.098,1,1,1,0.25,0,5.359149592,-0.017330301,-17.33030095,5.359153372,-33.1255062,0.016502525,-33.12550375
0.1,0.1,1,1,1,0.25,0,5.697382699,-0.017740753,-17.74075269,5.697386479,-33.12504455,0.02427055,-33.1250421
0.102,0.102,1,1,1,0.5,0,6.035763204,-0.018152555,-18.1525554,6.035766984,-33.12476281,0.021841304,-33.12476036
0.104,0.104,1,1,1,0.5,0,6.3733342,-0.018855164,-18.85516416,6.37333798,-33.12437923,0.017610499,-33.12437679
0.106,0.106,1,1,1,0.5,0,6.708263282,-0.019534208,-19.53420847,6.708267062,-33.12392126,0.025742775,-33.12391882
0.108,0.108,1,1,1,0.5,0,7.039111695,-0.019781783,-19.78178312,7.039115475,-33.12357177,0.023842271,-33.12356933
0.11,0.11,1,1,1,0.5,0,7.365408981,-0.020001488,-20.00148761,7.365412761,-33.12329398,0.01944582,-33.12329153
0.112,0.112,1,1,1,0.5,0,7.686631507,-0.020501116,-20.5011163,7.686635287,-33.12295877,0.019978807,-33.12295633
0.114,0.114,1,1,1,0.5,0,8.001004391,-0.021362614,-21.36261414,8.001008171,-33.12272227,0.022585051,-33.12271983
0.116,0.116,1,1,1,0.5,0,8.306911536,-0.02181256,-21.81256031,8.306915316,-33.12303413,0.019466677,-33.12303169
0.118,0.118,1,1,1,0.5,0,8.602751245,-0.022585193,-22.5851926,8.602755025,-33.12331935,0.01963568,-33.1233169
0.12,0.12,1,1,1,0.5,0,8.886608003,-0.023277191,-23.27719122,8.886611783,-33.12384611,0.024530154,-33.12384367
0.122,0.122,1,1,1,0.5,0,9.156332954,-0.02428727,-24.28727013,9.156336734,-33.12471632,0.020192034,-33.12471388
0.124,0.124,1,1,1,0.5,0,9.409318808,-0.025354763,-25.35476273,9.409322588,-33.12549221,0.021897303,-33.12548976
0.126,0.126,1,1,1,0.5,0,9.643013348,-0.026214326,-26.2143261,9.643017128,-33.12633441,0.022226245,-33.12633196
0.128,0.128,1,1,1,0.5,0,9.855032277,-0.027292635,-27.29263477,9.855036057,-33.1272241,0.021868705,-33.12722166
0.13,0.13,1,1,1,0.5,0,10.04339295,-0.027973465,-27.9734651,10.04339673,-33.12806264,0.022493047,-33.12806019
0.132,0.132,1,1,1,0.5,0,10.20672029,-0.028309694,-28.30969416,10.20672407,-33.12879632,0.024814936,-33.12879387
0.134,0.134,1,1,1,0.5,0,10.34415463,-0.028685136,-28.68513614,10.34415841,-33.12957425,0.023645827,-33.12957181
0.136,0.136,1,1,1,0.5,0,10.45488988,-0.029108929,-29.10892853,10.45489366,-33.13028403,0.024616565,-33.13028158
0.138,0.138,1,1,1,0.5,0,10.53812576,-0.029577767,-29.57776677,10.53812954,-33.1308264,0.023098083,-33.13082395
0.14,0.14,1,1,1,0.5,0,10.59339594,-0.029528772,-29.52877236,10.59339972,-33.13122366,0.021963599,-33.13122121
0.142,0.142,1,1,1,0.5,0,10.62045835,-0.029845661,-29.84566072,10.62046213,-33.13151864,0.022982844,-33.1315162
0.143,0.143,1,1,1,0.5,0,10.62341921,-0.029498082,-29.49808244,10.62342299,-33.13164448,0.021549238,-33.13164203
0.145,0.145,1,1,1,0.5,0,10.60943504,-0.028375865,-28.37586455,10.60943882,-33.13191822,0.022969999,-33.13191578
0.147,0.147,1,1,1,0.5,0,10.56928694,-0.029140914,-29.14091447,10.56929072,-33.13216499,0.022535363,-33.13216254
0.149,0.149,1,1,1,0.5,0,10.50124619,-0.030063678,-30.06367787,10.50124997,-33.13232776,0.01968485,-33.13232531
0.151,0.151,1,1,1,0.75,0,10.40331461,-0.030606991,-30.60699086,10.40331839,-33.13236704,0.021605446,-33.13236459
0.153,0.153,1,1,1,0.75,0,10.27404859,-0.031071394,-31.07139447,10.27405237,-33.13239033,0.020908051,-33.13238788
0.155,0.155,1,1,1,0.75,0,10.11216736,-0.031346011,-31.34601131,10.11217114,-33.13257265,0.022487581,-33.1325702
0.156,0.156,1,1,1,0.75,0,10.01885284,-0.031375538,-31.37553751,10.01885662,-33.1327059,0.024685346,-33.13270345
0.158,0.158,1,1,1,0.75,0,9.807445473,-0.031248003,-31.24800291,9.807449253,-33.13283948,0.023231398,-33.13283703
0.16,0.16,1,1,1,0.75,0,9.563511941,-0.030744783,-30.74478343,9.563515721,-33.13273075,0.023322067,-33.13272831
0.162,0.162,1,1,1,0.75,0,9.288533893,-0.030275001,-30.27500069,9.288537673,-33.13258597,0.021198478,-33.13258352
0.164,0.164,1,1,1,0.75,0,8.98369402,-0.029919654,-29.91965376,8.9836978,-33.13244091,0.020226103,-33.13243846
0.166,0.166,1,1,1,0.75,0,8.650055771,-0.029623229,-29.62322858,8.650059551,-33.13222759,0.025066291,-33.13222515
0.168,0.168,1,1,1,0.75,0,8.288627847,-0.029232765,-29.23276549,8.288631627,-33.13219907,0.019887844,-33.13219663
0.17,0.17,1,1,1,0.75,0,7.900245006,-0.028806772,-28.80677153,7.900248786,-33.13184528,0.025787654,-33.13184283
0.171,0.171,1,1,1,0.75,0,7.696482184,-0.028356503,-28.35650277,7.696485964,-33.13173671,0.026857067,-33.13173426
0.173,0.173,1,1,1,0.75,0,7.271368686,-0.027249356,-27.24935615,7.271372466,-33.1314631,0.020257535,-33.13146065
0.175,0.175,1,1,1,0.75,0,6.824984298,-0.026292568,-26.29256791,6.824988078,-33.13085688,0.025184796,-33.13085443
0.177,0.177,1,1,1,0.75,0,6.360063143,-0.024707872,-24.70787188,6.360066923,-33.13057863,0.024329376,-33.13057618
0.179,0.179,1,1,1,0.75,0,5.880164551,-0.022961672,-22.96167165,5.880168331,-33.13055565,0.01932139,-33.13055321
0.181,0.181,1,1,1,0.75,0,5.390113647,-0.020325871,-20.32587083,5.390117427,-33.1303137,0.02613813,-33.13031126
0.183,0.183,1,1,1,0.75,0,4.89480006,-0.019920508,-19.92050815,4.89480384,-33.13010934,0.020207011,-33.13010689
0.185,0.185,1,1,1,0.75,0,4.395493922,-0.019466126,-19.46612571,4.395497702,-33.12967184,0.020557302,-33.12966939
0.187,0.187,1,1,1,0.75,0,3.892671639,-0.019382086,-19.38208646,3.892675419,-33.12946268,0.021263437,-33.12946023
0.189,0.189,1,1,1,0.75,0,3.386740767,-0.018663281,-18.66328124,3.386744547,-33.12918803,0.01528041,-33.12918559
0.191,0.191,1,1,1,0.75,0,2.879510245,-0.017906068,-17.90606788,2.879514025,-33.12918333,0.019759683,-33.12918089
0.193,0.193,1,1,1,0.75,0,2.372687247,-0.016815386,-16.8153856,2.372691027,-33.12919482,0.021862879,-33.12919237
0.195,0.195,1,1,1,0.75,0,1.86947912,-0.015048077,-15.04807727,1.8694829,-33.12931762,0.020191661,-33.12931517
0.197,0.197,1,1,1,0.75,0,1.374185608,-0.013784316,-13.78431626,1.374189388,-33.12971663,0.019520435,-33.12971419
0.199,0.199,1,1,1,0.75,0,0.890056122,-0.01243987,-12.4398702,0.890059902,-33.13003325,0.023081996,-33.1300308
0.2,0.2,1,1,1,0.75,0,0.653272919,-0.011677533,-11.67753333,0.653276699,-33.13028288,0.021023673,-33.13028043
0.201,0.201,1,1,1,1,0,0.420702763,-0.010960994,-10.96099379,0.420706543,-33.13066778,0.021308844,-33.13066534
0.203,0.002,2,2,1,1,0,-0.02994285,-0.009748238,-9.748238484,-0.02993907,-33.13181387,0.022790791,-33.13181142
0.205,0.004,2,2,1,1,0,-0.458629256,-0.008235531,-8.235530534,-0.458625476,-33.13304365,0.02480353,-33.1330412
0.207,0.006,2,2,1,1,0,-0.861700162,-0.007010688,-7.010687928,-0.861696382,-33.13430546,0.023371602,-33.13430301
0.209,0.008,2,2,1,1,0,-1.236081638,-0.005609482,-5.609482052,-1.236077858,-33.1362193,0.019320336,-33.13621685
0.212,0.011,2,2,1,1,0,-1.736698077,-0.003547395,-3.547394946,-1.736694297,-33.13910419,0.018942109,-33.13910174
0.214,0.013,2,2,1,1,0,-2.02449486,-0.002230451,-2.230450978,-2.02449108,-33.14104104,0.021585023,-33.1410386
0.216,0.015,2,2,1,1,0,-2.27198005,-0.001118872,-1.118872319,-2.27197627,-33.14279677,0.024709565,-33.14279432
0.218,0.017,2,2,1,1,0,-2.477329992,-0.000642285,-0.642284981,-2.477326212,-33.14457117,0.025250587,-33.14456872
0.22,0.019,2,2,1,1,0,-2.639551019,-0.000491719,-0.491719099,-2.639547239,-33.14620556,0.025312314,-33.14620312
0.222,0.021,2,2,1,1,0,-2.758229709,-0.000103792,-0.103792461,-2.758225929,-33.14767132,0.021795503,-33.14766888
0.224,0.023,2,2,1,1,0,-2.832715242,0.000273544,0.273543801,-2.832711462,-33.14891285,0.020098391,-33.14891041
0.226,0.025,2,2,1,1,0,-2.862284535,0.000390559,0.390559287,-2.862280755,-33.14994943,0.020598794,-33.14994698
0.228,0.027,2,2,1,1,0,-2.848659848,-0.001929201,-1.929201241,-2.848656068,-33.15077703,0.021901252,-33.15077458
0.23,0.029,2,2,1,1,0,-2.795400648,-0.00158724,-1.587240405,-2.795396868,-33.15135404,0.023855605,-33.15135159
0.232,0.031,2,2,1,1,0,-2.701194673,-4.58E-07,-0.000458287,-2.701190893,-33.15174798,0.022257025,-33.15174554
0.234,0.033,2,2,1,1,0,-2.562692117,0.000939032,0.939031983,-2.562688337,-33.15209719,0.017396668,-33.15209474
0.236,0.035,2,2,1,1,0,-2.377299032,0.001823323,1.82332315,-2.377295252,-33.15223329,0.020445875,-33.15223084
0.238,0.037,2,2,1,1,0,-2.142922279,0.002376146,2.376145599,-2.142918499,-33.15226611,0.020931293,-33.15226366
0.239,0.038,2,2,1,1,0,-2.007148127,0.002259844,2.259844387,-2.007144347,-33.15232578,0.024156827,-33.15232333
0.241,0.04,2,2,1,1,0,-1.698955297,0.001641439,1.641438934,-1.698951517,-33.15220421,0.023088443,-33.15220176
0.243,0.042,2,2,1,1,0,-1.342637027,0.001283634,1.283633674,-1.342633247,-33.15196924,0.01950506,-33.1519668
0.245,0.044,2,2,1,1,0,-0.93896914,0.001020574,1.020573951,-0.93896536,-33.1513366,0.023956629,-33.15133415
0.247,0.046,2,2,1,1,0,-0.488713674,0.000968539,0.968538934,-0.488709894,-33.15078687,0.024040409,-33.15078443
0.249,0.048,2,2,1,1,0,0.007480998,9.40E-05,0.094031354,0.007484778,-33.1500202,0.019420385,-33.15001776
0.253,0.052,2,2,1,1.25,0,1.123739657,-0.002943546,-2.94354621,1.123743437,-33.14724757,0.024378656,-33.14724513
0.255,0.054,2,2,1,1.25,0,1.737189603,-0.00373206,-3.732060055,1.737193383,-33.14570195,0.015863099,-33.1456995
0.257,0.056,2,2,1,1.25,0,2.384425893,-0.004802305,-4.802304969,2.384429673,-33.14351465,0.028754502,-33.14351221
0.259,0.058,2,2,1,1.25,0,3.062432279,-0.006306696,-6.306695556,3.062436059,-33.14127725,0.025817495,-33.1412748
0.261,0.06,2,2,1,1.25,0,3.767190318,-0.008178692,-8.178692202,3.767194098,-33.13895688,0.021807847,-33.13895444
0.263,0.062,2,2,1,1.25,0,4.49421541,-0.010109687,-10.10968697,4.49421919,-33.1363718,0.018399852,-33.13636936
0.265,0.064,2,2,1,1.25,0,5.238435922,-0.012274746,-12.2747465,5.238439702,-33.13390378,0.012343474,-33.13390134
0.267,0.066,2,2,1,1.25,0,5.99525752,-0.013745672,-13.74567218,5.9952613,-33.1313983,0.026682233,-33.13139585
0.269,0.068,2,2,1,1.25,0,6.760838243,-0.015408931,-15.40893085,6.760842023,-33.12923652,0.022257546,-33.12923407
0.27,0.069,2,2,1,1.25,0,7.145710493,-0.016159715,-16.15971543,7.145714273,-33.12842413,0.033443222,-33.12842168
0.272,0.071,2,2,1,1.25,0,7.918568754,-0.015929869,-15.92986854,7.918572534,-33.12712532,0.009436475,-33.12712288
0.274,0.073,2,2,1,1.25,0,8.695835928,-0.016202743,-16.20274313,8.695839708,-33.12607451,0.013615023,-33.12607207
0.275,0.074,2,2,1,1.25,0,9.085849877,-0.016808655,-16.80865522,9.085853657,-33.1257033,0.005179769,-33.12570086
0.277,0.076,2,2,1,1.25,0,9.866777721,-0.018669082,-18.66908165,9.866781501,-33.12531694,0.013673141,-33.12531449
0.279,0.078,2,2,1,1.25,0,10.64458211,-0.020862027,-20.8620266,10.64458589,-33.12564416,0.033301509,-33.12564171
0.281,0.08,2,2,1,1.25,0,11.41445384,-0.022111416,-22.11141555,11.41445762,-33.12695141,0.007722092,-33.12694896
0.283,0.082,2,2,1,1.25,0,12.17227361,-0.024510751,-24.51075076,12.17227739,-33.12846665,0.020031133,-33.1284642
0.285,0.084,2,2,1,1.25,0,12.91212892,-0.026666347,-26.66634748,12.9121327,-33.13007301,0.028551558,-33.13007056
0.287,0.086,2,2,1,1.25,0,13.62926912,-0.027707154,-27.70715416,13.6292729,-33.13173099,0.009914178,-33.13172855
0.289,0.088,2,2,1,1.25,0,14.32120859,-0.028163255,-28.16325478,14.32121237,-33.13286881,0.030645802,-33.13286636
0.291,0.09,2,2,1,1.25,0,14.98596656,-0.029686655,-29.68665471,14.98597034,-33.13372923,0.029520088,-33.13372678
0.293,0.092,2,2,1,1.25,0,15.61889984,-0.03290281,-32.90281027,15.61890362,-33.13431821,0.017165954,-33.13431576
0.295,0.094,2,2,1,1.25,0,16.21037459,-0.038825431,-38.82543113,16.21037837,-33.13392838,0.032041797,-33.13392593
0.297,0.096,2,2,1,1.25,0,16.74737877,-0.042204728,-42.20472824,16.74738255,-33.13319878,0.020588242,-33.13319633
0.299,0.098,2,2,1,1.25,0,17.22553078,-0.039286516,-39.28651561,17.22553456,-33.13215635,0.021233341,-33.13215391
0.301,0.1,2,2,1,1.5,0,17.65266954,-0.03464497,-34.64496978,17.65267332,-33.13057693,0.030340652,-33.13057449
0.303,0.102,2,2,1,1.5,0,18.03902538,-0.032184496,-32.18449564,18.03902916,-33.12888968,0.019459026,-33.12888724
0.305,0.104,2,2,1,1.5,0,18.39066342,-0.031187139,-31.18713864,18.3906672,-33.12726744,0.021382677,-33.12726499
0.307,0.106,2,2,1,1.5,0,18.70866404,-0.032723497,-32.72349728,18.70866782,-33.1257712,0.023625717,-33.12576875
0.309,0.108,2,2,1,1.5,0,18.98930963,-0.034607881,-34.60788081,18.98931341,-33.12445339,0.014603701,-33.12445094
0.311,0.11,2,2,1,1.5,0,19.22836586,-0.035936008,-35.93600849,19.22836964,-33.12351333,0.018311468,-33.12351089
0.313,0.112,2,2,1,1.5,0,19.42294732,-0.036327706,-36.32770594,19.4229511,-33.12286188,0.024002787,-33.12285943
0.315,0.114,2,2,1,1.5,0,19.5711097,-0.037223214,-37.22321375,19.57111348,-33.12270283,0.017115663,-33.12270038
0.317,0.116,2,2,1,1.5,0,19.67036238,-0.0379217,-37.92169953,19.67036616,-33.12292361,0.021563194,-33.12292116
0.319,0.118,2,2,1,1.5,0,19.71948759,-0.037454261,-37.45426058,19.71949137,-33.12348244,0.024397194,-33.12348
0.32,0.119,2,2,1,1.5,0,19.7257833,-0.036211036,-36.21103563,19.72578708,-33.12391913,0.021583845,-33.12391668
0.322,0.121,2,2,1,1.5,0,19.70685369,-0.031731229,-31.73122922,19.70685747,-33.12482723,0.025462885,-33.12482478
0.324,0.123,2,2,1,1.5,0,19.65112388,-0.032126269,-32.12626903,19.65112766,-33.12579853,0.020920368,-33.12579608
0.326,0.125,2,2,1,1.5,0,19.55686802,-0.033952415,-33.95241495,19.5568718,-33.12676018,0.025650905,-33.12675774
0.328,0.127,2,2,1,1.5,0,19.42051051,-0.035169799,-35.1697988,19.42051429,-33.12765742,0.030753128,-33.12765498
0.33,0.129,2,2,1,1.5,0,19.23895223,-0.036049073,-36.04907309,19.23895601,-33.12855419,0.020769399,-33.12855175
0.332,0.131,2,2,1,1.5,0,19.01046722,-0.036224624,-36.22462395,19.010471,-33.12940752,0.026016944,-33.12940508
0.334,0.133,2,2,1,1.5,0,18.73608271,-0.035437278,-35.43727847,18.73608649,-33.13026804,0.025608941,-33.1302656
0.336,0.135,2,2,1,1.5,0,18.41736761,-0.035246684,-35.24668383,18.41737139,-33.13109647,0.02138388,-33.13109402
0.338,0.137,2,2,1,1.5,0,18.05515291,-0.034765954,-34.76595417,18.05515669,-33.13147504,0.027559287,-33.13147259
0.34,0.139,2,2,1,1.5,0,17.65120368,-0.033978974,-33.97897437,17.65120746,-33.13175369,0.027531534,-33.13175124
0.342,0.141,2,2,1,1.5,0,17.20753628,-0.033564637,-33.56463727,17.20754006,-33.13178457,0.022425846,-33.13178212
0.344,0.143,2,2,1,1.5,0,16.72525592,-0.033631274,-33.63127368,16.7252597,-33.13157075,0.022610046,-33.13156831
0.346,0.145,2,2,1,1.5,0,16.2051147,-0.03282082,-32.82081983,16.20511848,-33.13147138,0.019133445,-33.13146893
