Time (s),Displacement (mm),Force (kN),AVE2 (%)
0,10.0,-0.001,0.0
1,10.1,-0.1,0.1
2,10.2,-0.2,0.2
3,10.3,-0.3,0.3
4,10.4,-0.4,0.4
5,10.5,-0.5,0.5
6,10.6,-0.6,0.6
7,10.7,-0.7,0.7
8,10.8,-0.8,0.8
9,10.9,-0.9,0.9
10,11.0,-1.0,1.0
11,11.1,-1.05,1.1
12,11.2,-1.1,1.2
13,11.3,-1.15,1.3
14,11.4,-1.2,1.4
15,11.5,-1.25,1.5
16,11.6,-1.3,1.6
17,11.7,-1.35,1.7
18,11.8,-1.4,1.8
19,11.9,-1.45,1.9
20,12.0,-1.5,2.0
21,11.9,-1.4,1.9
22,11.8,-1.3,1.8
23,11.7,-1.2,1.7
24,11.6,-1.1,1.6
25,11.5,-1.0,1.5
